 
                    =================


  WATER DEPTH=  -12.000    WAVE AMPLITUDE=  0.50
  WAVE NUMBER=  1.50000  K0=      NaN  WAVE LENGTH=   4.1888
  ANGULAR FREQU.=      NaN   WAVE PERIOD=    NaN
  WAVE DIRECTION:  0.000  Degree

   After BODMASS
  ISYS=           0  NSYS=           1
  NELEMB=          16  NELEMF=           0
  NELEM=          16   IOPL=           1
   After MESHFS4
   INODE       X           Y        Z
     1    0.2500E+00    0.0000E+00    0.0000E+00
     2    0.2452E+00    0.4877E-01    0.0000E+00
     3    0.2310E+00    0.9567E-01    0.0000E+00
     4    0.2079E+00    0.1389E+00    0.0000E+00
     5    0.1768E+00    0.1768E+00    0.0000E+00
     6    0.1389E+00    0.2079E+00    0.0000E+00
     7    0.9567E-01    0.2310E+00    0.0000E+00
     8    0.4877E-01    0.2452E+00    0.0000E+00
     9    0.1531E-16    0.2500E+00    0.0000E+00
    10   -0.4877E-01    0.2452E+00    0.0000E+00
    11   -0.9567E-01    0.2310E+00    0.0000E+00
    12   -0.1389E+00    0.2079E+00    0.0000E+00
    13   -0.1768E+00    0.1768E+00    0.0000E+00
    14   -0.2079E+00    0.1389E+00    0.0000E+00
    15   -0.2310E+00    0.9567E-01    0.0000E+00
    16   -0.2452E+00    0.4877E-01    0.0000E+00
    17   -0.2500E+00    0.3062E-16    0.0000E+00
    18   -0.2452E+00   -0.4877E-01    0.0000E+00
    19   -0.2310E+00   -0.9567E-01    0.0000E+00
    20   -0.2079E+00   -0.1389E+00    0.0000E+00
    21   -0.1768E+00   -0.1768E+00    0.0000E+00
    22   -0.1389E+00   -0.2079E+00    0.0000E+00
    23   -0.9567E-01   -0.2310E+00    0.0000E+00
    24   -0.4877E-01   -0.2452E+00    0.0000E+00
    25   -0.4592E-16   -0.2500E+00    0.0000E+00
    26    0.4877E-01   -0.2452E+00    0.0000E+00
    27    0.9567E-01   -0.2310E+00    0.0000E+00
    28    0.1389E+00   -0.2079E+00    0.0000E+00
    29    0.1768E+00   -0.1768E+00    0.0000E+00
    30    0.2079E+00   -0.1389E+00    0.0000E+00
    31    0.2310E+00   -0.9567E-01    0.0000E+00
    32    0.2452E+00   -0.4877E-01    0.0000E+00
    33    0.2500E+00    0.0000E+00    0.0000E+00
    34    0.2310E+00    0.9567E-01    0.0000E+00
    35    0.1768E+00    0.1768E+00    0.0000E+00
    36    0.9567E-01    0.2310E+00    0.0000E+00
    37    0.1531E-16    0.2500E+00    0.0000E+00
    38   -0.9567E-01    0.2310E+00    0.0000E+00
    39   -0.1768E+00    0.1768E+00    0.0000E+00
    40   -0.2310E+00    0.9567E-01    0.0000E+00
    41   -0.2500E+00    0.3062E-16    0.0000E+00
    42   -0.2310E+00   -0.9567E-01    0.0000E+00
    43   -0.1768E+00   -0.1768E+00    0.0000E+00
    44   -0.9567E-01   -0.2310E+00    0.0000E+00
    45   -0.4592E-16   -0.2500E+00    0.0000E+00
    46    0.9567E-01   -0.2310E+00    0.0000E+00
    47    0.1768E+00   -0.1768E+00    0.0000E+00
    48    0.2310E+00   -0.9567E-01    0.0000E+00
    49    0.0000E+00    0.0000E+00    0.0000E+00
   INODE       nx          ny       nz
     1    0.0000E+00    0.0000E+00    0.1000E+01
     2    0.0000E+00    0.0000E+00    0.1000E+01
     3    0.0000E+00    0.0000E+00    0.1000E+01
     4    0.0000E+00    0.0000E+00    0.1000E+01
     5    0.0000E+00    0.0000E+00    0.1000E+01
     6    0.0000E+00    0.0000E+00    0.1000E+01
     7    0.0000E+00    0.0000E+00    0.1000E+01
     8    0.0000E+00    0.0000E+00    0.1000E+01
     9    0.0000E+00    0.0000E+00    0.1000E+01
    10    0.0000E+00    0.0000E+00    0.1000E+01
    11    0.0000E+00    0.0000E+00    0.1000E+01
    12    0.0000E+00    0.0000E+00    0.1000E+01
    13    0.0000E+00    0.0000E+00    0.1000E+01
    14    0.0000E+00    0.0000E+00    0.1000E+01
    15    0.0000E+00    0.0000E+00    0.1000E+01
    16    0.0000E+00    0.0000E+00    0.1000E+01
    17    0.0000E+00    0.0000E+00    0.1000E+01
    18    0.0000E+00    0.0000E+00    0.1000E+01
    19    0.0000E+00    0.0000E+00    0.1000E+01
    20    0.0000E+00    0.0000E+00    0.1000E+01
    21    0.0000E+00    0.0000E+00    0.1000E+01
    22    0.0000E+00    0.0000E+00    0.1000E+01
    23    0.0000E+00    0.0000E+00    0.1000E+01
    24    0.0000E+00    0.0000E+00    0.1000E+01
    25    0.0000E+00    0.0000E+00    0.1000E+01
    26    0.0000E+00    0.0000E+00    0.1000E+01
    27    0.0000E+00    0.0000E+00    0.1000E+01
    28    0.0000E+00    0.0000E+00    0.1000E+01
    29    0.0000E+00    0.0000E+00    0.1000E+01
    30    0.0000E+00    0.0000E+00    0.1000E+01
    31    0.0000E+00    0.0000E+00    0.1000E+01
    32    0.0000E+00    0.0000E+00    0.1000E+01
    33    0.0000E+00    0.0000E+00    0.1000E+01
    34    0.0000E+00    0.0000E+00    0.1000E+01
    35    0.0000E+00    0.0000E+00    0.1000E+01
    36    0.0000E+00    0.0000E+00    0.1000E+01
    37    0.0000E+00    0.0000E+00    0.1000E+01
    38    0.0000E+00    0.0000E+00    0.1000E+01
    39    0.0000E+00    0.0000E+00    0.1000E+01
    40    0.0000E+00    0.0000E+00    0.1000E+01
    41    0.0000E+00    0.0000E+00    0.1000E+01
    42    0.0000E+00    0.0000E+00    0.1000E+01
    43    0.0000E+00    0.0000E+00    0.1000E+01
    44    0.0000E+00    0.0000E+00    0.1000E+01
    45    0.0000E+00    0.0000E+00    0.1000E+01
    46    0.0000E+00    0.0000E+00    0.1000E+01
    47    0.0000E+00    0.0000E+00    0.1000E+01
    48    0.0000E+00    0.0000E+00    0.1000E+01
    49    0.0000E+00    0.0000E+00    0.1000E+01
   After MESHBD4
  NNODE=          49
  NNODED=          49
 AFTER BODYFD

 INODE=  49 X=    0.0000 Y=    0.0000 Z=    0.0000
 
 单元           1
  Inside SGBD0_1
  IS,INODE,IELEM,NODN:           1          49           1           3
  XP,YP,ZP:  0.000000000000000E+000  0.000000000000000E+000
  0.000000000000000E+000
  XJ(1,1)= -5.709035061653500E-002  XJ(2,1)= -0.750000000000000     
  XJ(1,2)=  0.287012574273817       XJ(2,2)=  0.000000000000000E+000
  XJ(1,3)=  0.000000000000000E+000  XJ(2,3)=  0.000000000000000E+000
  JK0=  0.000000000000000E+000  0.000000000000000E+000  0.215259430705363     
XXJ(1,1)=-0.37691028E-01 XXJ(2,1)=-0.10000000E+01 XXJ(3,1)=-0.56905748E-01
XXJ(1,2)=-0.74972117E-02 XXJ(2,2)= 0.00000000E+00 XXJ(3,2)= 0.18759311E+00
XXJ(1,3)= 0.00000000E+00 XXJ(2,3)= 0.00000000E+00 XXJ(3,3)= 0.00000000E+00
  JK1C=  0.000000000000000E+000  0.000000000000000E+000  2.081668171172169E-017
  JK1S=  0.000000000000000E+000  0.000000000000000E+000  0.427707407035538     
    LK,  SF(LK),  DSF(1,LK),   DSF(2,LK)
   N0=   1.00000000000000     
   N1C=  0.000000000000000E+000
   N1S=  0.000000000000000E+000
  Inside CIRBOD_2
   I=1           1
  JK1=  0.000000000000000E+000  0.000000000000000E+000 -0.427707407035538     
  F1=  6.664188148592709E-003  GAMMA=   1.18518518518519     
  PLO=   1.00000000000000        BETAs=   1.33333333333333     
  DLOG(PLO/BETAs)= -0.287682072451781     
  FITG1= -1.101997424251089E-004
 
   I=1           2
  JK1=  0.000000000000000E+000  0.000000000000000E+000 -0.424404597707933     
  F1=  2.485122734012135E-003  GAMMA=   1.20954178679684     
  PLO=   1.00778221853732        BETAs=   1.35503859585760     
  DLOG(PLO/BETAs)= -0.296077844685772     
  FITG1= -1.994377249324737E-004
 
   I=1           3
  JK1=  0.000000000000000E+000  0.000000000000000E+000 -0.414937133192134     
  F1= -8.428975967325059E-004  GAMMA=   1.24840975268459     
  PLO=   1.03077640640442        BETAs=   1.39441453536628     
  DLOG(PLO/BETAs)= -0.302162328362017     
  FITG1= -1.656540922443462E-004
 
   I=1           4
  JK1=  0.000000000000000E+000  0.000000000000000E+000 -0.400474924669774     
  F1= -3.233169224455157E-003  GAMMA=   1.30058987182362     
  PLO=   1.06800046816469        BETAs=   1.45010658077973     
  DLOG(PLO/BETAs)= -0.305848878822855     
  FITG1= -2.670189121108495E-005
 
   I=1           5
  JK1=  0.000000000000000E+000  0.000000000000000E+000 -0.382553134644654     
  F1= -4.414743229837370E-003  GAMMA=   1.36401203726096     
  PLO=   1.11803398874989        BETAs=   1.51991675934103     
  DLOG(PLO/BETAs)= -0.307083794110071     
  FITG1=  1.676338994218218E-004
 
   I=1           6
  JK1=  0.000000000000000E+000  0.000000000000000E+000 -0.364323099326889     
  F1= -4.053498164357405E-003  GAMMA=   1.43004899457660     
  PLO=   1.17397828418169        BETAs=   1.59430290003723     
  DLOG(PLO/BETAs)= -0.306038363488036     
  FITG1=  3.419493781985549E-004
 
   I=1           7
  JK1=  0.000000000000000E+000  0.000000000000000E+000 -0.342165925628431     
  F1= -1.239555289312300E-003  GAMMA=   1.51391919834405     
  PLO=   1.25000000000000        BETAs=   1.69097600447405     
  DLOG(PLO/BETAs)= -0.302162328362017     
  FITG1=  3.916311909752046E-004
 
   I=1           8
  JK1=  0.000000000000000E+000  0.000000000000000E+000 -0.321882626688455     
  F1=  4.320290291436324E-003  GAMMA=   1.59478969311785     
  PLO=   1.32876822659183        BETAs=   1.78662830010482     
  DLOG(PLO/BETAs)= -0.296077844685772     
  FITG1=  2.364943906162530E-004
 
   I=1           9
  JK1=  0.000000000000000E+000  0.000000000000000E+000 -0.302434807878544     
  F1=  1.332837629718631E-002  GAMMA=   1.67610496281256     
  PLO=   1.41421356237310        BETAs=   1.88561808316413     
  DLOG(PLO/BETAs)= -0.287682072451781     
  FITG1=  1.609490576602024E-005
 
  Inside CIRBOD_2   ftig=  -1.22632291065236     
  FITG1=   1.609490576602024E-005    FITG2=  -1.22633900555812     
  SUM1=   4.158241007682240E-005    SUM2=  0.546197301360430     
  Surface Integration
  Inside AREA_COEF
  SISM,ETASM=  0.101286507323456       0.101286507323456     
    X,Y,Z=  0.269396321875689       1.195590304760041E-002
  0.000000000000000E+000
  JK1=  0.000000000000000E+000  0.000000000000000E+000 -0.425016714104247     
  Inside AREA_COEF
  SISM,ETASM=  0.797426985353087       0.101286507323456     
    X,Y,Z=  0.253465073930051       9.204769500355157E-002
  0.000000000000000E+000
  JK1=  0.000000000000000E+000  0.000000000000000E+000 -0.319925049697677     
  Inside AREA_COEF
  SISM,ETASM=  0.101286507323456       0.797426985353087     
    X,Y,Z=  0.126603617518629       2.518302527945913E-002
  0.000000000000000E+000
  JK1=  0.000000000000000E+000  0.000000000000000E+000 -0.382553134644655     
  Inside AREA_COEF
  SISM,ETASM=  0.470142064105115       5.971587178977000E-002
    X,Y,Z=  0.257296069038142       5.117937020985669E-002
  0.000000000000000E+000
  JK1=  0.000000000000000E+000  0.000000000000000E+000 -0.382553134644654     
  Inside AREA_COEF
  SISM,ETASM=  0.470142064105115       0.470142064105115     
    X,Y,Z=  0.240188375143293       8.737707738240459E-002
  0.000000000000000E+000
  JK1=  0.000000000000000E+000  0.000000000000000E+000 -0.319925049697677     
  Inside AREA_COEF
  SISM,ETASM=  5.971587178977000E-002  0.470142064105115     
    X,Y,Z=  0.255342883624760       1.119021840977068E-002
  0.000000000000000E+000
  JK1=  0.000000000000000E+000  0.000000000000000E+000 -0.425016714104247     
  Inside AREA_COEF
  SISM,ETASM=  0.333333333333333       0.333333333333333     
    X,Y,Z=  0.269299436642966       5.356698847666054E-002
  0.000000000000000E+000
  JK1=  0.000000000000000E+000  0.000000000000000E+000 -0.382553134644654     
 
 单元           2
  Inside SGBD0_1
  IS,INODE,IELEM,NODN:           1          49           2           3
  XP,YP,ZP:  0.000000000000000E+000  0.000000000000000E+000
  0.000000000000000E+000
  XJ(1,1)= -0.162579563493554       XJ(2,1)= -0.692909649383465     
  XJ(1,2)=  0.243317511616093       XJ(2,2)= -0.287012574273817     
  XJ(1,3)=  0.000000000000000E+000  XJ(2,3)=  0.000000000000000E+000
  JK0=  0.000000000000000E+000  0.000000000000000E+000  0.215259430705363     
XXJ(1,1)=-0.31952911E-01 XXJ(2,1)=-0.92387953E+00 XXJ(3,1)=-0.12436283E+00
XXJ(1,2)=-0.21350252E-01 XXJ(2,2)=-0.38268343E+00 XXJ(3,2)= 0.15153655E+00
XXJ(1,3)= 0.00000000E+00 XXJ(2,3)= 0.00000000E+00 XXJ(3,3)= 0.00000000E+00
  JK1C=  0.000000000000000E+000  0.000000000000000E+000  0.000000000000000E+000
  JK1S=  0.000000000000000E+000  0.000000000000000E+000  0.427707407035538     
    LK,  SF(LK),  DSF(1,LK),   DSF(2,LK)
   N0=   1.00000000000000     
   N1C=  0.000000000000000E+000
   N1S=  0.000000000000000E+000
  Inside CIRBOD_2
   I=1           1
  JK1=  0.000000000000000E+000  0.000000000000000E+000 -0.427707407035538     
  F1=  6.664188148592931E-003  GAMMA=   1.18518518518519     
  PLO=   1.00000000000000        BETAs=   1.33333333333333     
  DLOG(PLO/BETAs)= -0.287682072451781     
  FITG1= -1.101997424251126E-004
 
   I=1           2
  JK1=  0.000000000000000E+000  0.000000000000000E+000 -0.424404597707932     
  F1=  2.485122734012579E-003  GAMMA=   1.20954178679684     
  PLO=   1.00778221853732        BETAs=   1.35503859585760     
  DLOG(PLO/BETAs)= -0.296077844685772     
  FITG1= -1.994377249324934E-004
 
   I=1           3
  JK1=  0.000000000000000E+000  0.000000000000000E+000 -0.414937133192134     
  F1= -8.428975967322838E-004  GAMMA=   1.24840975268459     
  PLO=   1.03077640640442        BETAs=   1.39441453536628     
  DLOG(PLO/BETAs)= -0.302162328362017     
  FITG1= -1.656540922443748E-004
 
   I=1           4
  JK1=  0.000000000000000E+000  0.000000000000000E+000 -0.400474924669774     
  F1= -3.233169224454935E-003  GAMMA=   1.30058987182362     
  PLO=   1.06800046816469        BETAs=   1.45010658077973     
  DLOG(PLO/BETAs)= -0.305848878822856     
  FITG1= -2.670189121112312E-005
 
   I=1           5
  JK1=  0.000000000000000E+000  0.000000000000000E+000 -0.382553134644654     
  F1= -4.414743229836926E-003  GAMMA=   1.36401203726096     
  PLO=   1.11803398874989        BETAs=   1.51991675934103     
  DLOG(PLO/BETAs)= -0.307083794110071     
  FITG1=  1.676338994217641E-004
 
   I=1           6
  JK1=  0.000000000000000E+000  0.000000000000000E+000 -0.364323099326889     
  F1= -4.053498164358071E-003  GAMMA=   1.43004899457660     
  PLO=   1.17397828418169        BETAs=   1.59430290003723     
  DLOG(PLO/BETAs)= -0.306038363488036     
  FITG1=  3.419493781985258E-004
 
   I=1           7
  JK1=  0.000000000000000E+000  0.000000000000000E+000 -0.342165925628431     
  F1= -1.239555289312522E-003  GAMMA=   1.51391919834405     
  PLO=   1.25000000000000        BETAs=   1.69097600447405     
  DLOG(PLO/BETAs)= -0.302162328362017     
  FITG1=  3.916311909751844E-004
 
   I=1           8
  JK1=  0.000000000000000E+000  0.000000000000000E+000 -0.321882626688455     
  F1=  4.320290291436102E-003  GAMMA=   1.59478969311785     
  PLO=   1.32876822659183        BETAs=   1.78662830010482     
  DLOG(PLO/BETAs)= -0.296077844685772     
  FITG1=  2.364943906162407E-004
 
   I=1           9
  JK1=  0.000000000000000E+000  0.000000000000000E+000 -0.302434807878544     
  F1=  1.332837629718497E-002  GAMMA=   1.67610496281256     
  PLO=   1.41421356237310        BETAs=   1.88561808316413     
  DLOG(PLO/BETAs)= -0.287682072451781     
  FITG1=  1.609490576603002E-005
 
  Inside CIRBOD_2   ftig=  -1.22632291065236     
  FITG1=   1.609490576603002E-005    FITG2=  -1.22633900555812     
  SUM1=   4.158241007678673E-005    SUM2=  0.546197301360430     
  Surface Integration
  Inside AREA_COEF
  SISM,ETASM=  0.101286507323456       0.101286507323456     
    X,Y,Z=  0.244314421899491       0.114139323240286     
  0.000000000000000E+000
  JK1=  0.000000000000000E+000  0.000000000000000E+000 -0.425016714104247     
  Inside AREA_COEF
  SISM,ETASM=  0.797426985353087       0.101286507323456     
    X,Y,Z=  0.198946066145181       0.182037865904846     
  0.000000000000000E+000
  JK1=  0.000000000000000E+000  0.000000000000000E+000 -0.319925049697677     
  Inside AREA_COEF
  SISM,ETASM=  0.101286507323456       0.797426985353087     
    X,Y,Z=  0.107329364416069       7.171518852427261E-002
  0.000000000000000E+000
  JK1=  0.000000000000000E+000  0.000000000000000E+000 -0.382553134644655     
  Inside AREA_COEF
  SISM,ETASM=  0.470142064105115       5.971587178977000E-002
    X,Y,Z=  0.218125074921759       0.145746515457266     
  0.000000000000000E+000
  JK1=  0.000000000000000E+000  0.000000000000000E+000 -0.382553134644654     
  Inside AREA_COEF
  SISM,ETASM=  0.470142064105115       0.470142064105115     
    X,Y,Z=  0.188467363859302       0.172642005218288     
  0.000000000000000E+000
  JK1=  0.000000000000000E+000  0.000000000000000E+000 -0.319925049697677     
  Inside AREA_COEF
  SISM,ETASM=  5.971587178977000E-002  0.470142064105115     
    X,Y,Z=  0.231623752763361       0.108053904888641     
  0.000000000000000E+000
  JK1=  0.000000000000000E+000  0.000000000000000E+000 -0.425016714104247     
  Inside AREA_COEF
  SISM,ETASM=  0.333333333333333       0.333333333333333     
    X,Y,Z=  0.228301038619547       0.152545877020370     
  0.000000000000000E+000
  JK1=  0.000000000000000E+000  0.000000000000000E+000 -0.382553134644654     
 
 单元           3
  Inside SGBD0_1
  IS,INODE,IELEM,NODN:           1          49           3           3
  XP,YP,ZP:  0.000000000000000E+000  0.000000000000000E+000
  0.000000000000000E+000
  XJ(1,1)= -0.243317511616093       XJ(2,1)= -0.530330085889911     
  XJ(1,2)=  0.162579563493555       XJ(2,2)= -0.530330085889911     
  XJ(1,3)=  0.000000000000000E+000  XJ(2,3)=  0.000000000000000E+000
  JK0=  0.000000000000000E+000  0.000000000000000E+000  0.215259430705363     
XXJ(1,1)=-0.21350252E-01 XXJ(2,1)=-0.70710678E+00 XXJ(3,1)=-0.17288680E+00
XXJ(1,2)=-0.31952911E-01 XXJ(2,2)=-0.70710678E+00 XXJ(3,2)= 0.92409920E-01
XXJ(1,3)= 0.00000000E+00 XXJ(2,3)= 0.00000000E+00 XXJ(3,3)= 0.00000000E+00
  JK1C=  0.000000000000000E+000  0.000000000000000E+000 -7.459310946700271E-017
  JK1S=  0.000000000000000E+000  0.000000000000000E+000  0.427707407035538     
    LK,  SF(LK),  DSF(1,LK),   DSF(2,LK)
   N0=   1.00000000000000     
   N1C=  0.000000000000000E+000
   N1S=  0.000000000000000E+000
  Inside CIRBOD_2
   I=1           1
  JK1=  0.000000000000000E+000  0.000000000000000E+000 -0.427707407035538     
  F1=  6.664188148592709E-003  GAMMA=   1.18518518518519     
  PLO=   1.00000000000000        BETAs=   1.33333333333333     
  DLOG(PLO/BETAs)= -0.287682072451781     
  FITG1= -1.101997424251089E-004
 
   I=1           2
  JK1=  0.000000000000000E+000  0.000000000000000E+000 -0.424404597707933     
  F1=  2.485122734012135E-003  GAMMA=   1.20954178679684     
  PLO=   1.00778221853732        BETAs=   1.35503859585760     
  DLOG(PLO/BETAs)= -0.296077844685772     
  FITG1= -1.994377249324737E-004
 
   I=1           3
  JK1=  0.000000000000000E+000  0.000000000000000E+000 -0.414937133192134     
  F1= -8.428975967322838E-004  GAMMA=   1.24840975268459     
  PLO=   1.03077640640442        BETAs=   1.39441453536628     
  DLOG(PLO/BETAs)= -0.302162328362017     
  FITG1= -1.656540922443552E-004
 
   I=1           4
  JK1=  0.000000000000000E+000  0.000000000000000E+000 -0.400474924669774     
  F1= -3.233169224454491E-003  GAMMA=   1.30058987182362     
  PLO=   1.06800046816469        BETAs=   1.45010658077973     
  DLOG(PLO/BETAs)= -0.305848878822855     
  FITG1= -2.670189121112260E-005
 
   I=1           5
  JK1=  0.000000000000000E+000  0.000000000000000E+000 -0.382553134644654     
  F1= -4.414743229838036E-003  GAMMA=   1.36401203726096     
  PLO=   1.11803398874989        BETAs=   1.51991675934103     
  DLOG(PLO/BETAs)= -0.307083794110071     
  FITG1=  1.676338994218134E-004
 
   I=1           6
  JK1=  0.000000000000000E+000  0.000000000000000E+000 -0.364323099326889     
  F1= -4.053498164357405E-003  GAMMA=   1.43004899457660     
  PLO=   1.17397828418169        BETAs=   1.59430290003723     
  DLOG(PLO/BETAs)= -0.306038363488036     
  FITG1=  3.419493781985464E-004
 
   I=1           7
